Potential,Flux
9.996762758055063,-0.026247327398200408
9.99286842118009,-0.01915893135620459
9.988974084305118,-0.016005562490931574
9.985079747430145,-0.014024495084207179
9.98118541055517,-0.012597842541529215
9.977291073680199,-0.011497904008326749
9.973396736805226,-0.010611940831314054
9.969502399930255,-0.009875973702815668
9.965608063055281,-0.009250385221940681
9.96171372618031,-0.008709098057365841
9.957819389305335,-0.008234157499244336
9.953925052430362,-0.007812771190830042
9.95003071555539,-0.007435578035870376
9.946136378680418,-0.007095578408518663
9.942242041805446,-0.0067874413744791065
9.938347704930472,-0.006507037481033389
9.934453368055499,-0.006251112432027809
9.930559031180527,-0.0060170524625479255
9.926664694305554,-0.00580271201069002
9.922770357430581,-0.005606285741841322
9.918876020555608,-0.005426213680780259
9.914981683680635,-0.005261112143211518
9.911087346805664,-0.005109725318566236
9.90719300993069,-0.004970893434342746
9.903298673055717,-0.004843533872946399
9.899404336180744,-0.004726631807579242
9.895509999305771,-0.004619237127540307
9.891615662430798,-0.004520464809186815
9.887721325555827,-0.00442949646976511
9.883826988680854,-0.0043455815408637265
9.87993265180588,-0.00426803719464034
9.876038314930907,-0.004196246736737419
9.872143978055934,-0.004129656575681021
9.868249641180963,-0.004067772103488521
9.86435530430599,-0.004010152887408992
9.860460967431017,-0.003956407551092743
9.856566630556044,-0.0039061886470096556
9.85267229368107,-0.0038591877403960197
9.8487779568061,-0.003815130833379627
9.844883619931126,-0.0037737742051368946
9.840989283056151,-0.003734900689916497
9.83709494618118,-0.003698316384644798
9.833200609306207,-0.003663847762094211
9.829306272431236,-0.003631339154616641
9.825411935556263,-0.0036006505636422925
9.821517598681288,-0.0035716557641035044
9.817623261806316,-0.003544240659918398
9.813728924931343,-0.0035183018588323223
9.809834588056372,-0.003493745439185503
9.805940251181399,-0.0034704858739937464
9.802045914306424,-0.0034484451019765414
9.798151577431453,-0.003427551713461605
9.79425724055648,-0.0034077402408000477
9.790362903681508,-0.003388950538705339
9.786468566806535,-0.003371127239697808
9.782574229931521,-0.003354219275673845
9.778679893056589,-0.003338179455432153
9.774785556181616,-0.0033229640945863187
9.770891219306645,-0.0033085326824791655
9.766996882431632,-0.0032948475934767023
9.763102545556658,-0.003281873822763977
9.759208208681686,-0.003269578757319956
9.755313871806713,-0.0032579319666467183
9.751419534931742,-0.003246905018118882
9.747525198056769,-0.003236471310331205
9.743630861181794,-0.0032266059213615274
9.739736524306823,-0.003217285477607351
9.73584218743185,-0.0032084880269673383
9.731947850556878,-0.0032001929331235005
9.728053513681903,-0.003192380772753678
9.724159176806932,-0.003185033245857076
9.720264839931959,-0.003178133093002467
9.716370503056986,-0.003171664020553198
9.712476166182013,-0.003165610632586298
9.70858182930704,-0.0031599583658484254
9.704687492432068,-0.0031546934361959575
9.700793155557095,-0.0031498027832757803
9.696898818682122,-0.0031452740228973272
9.693004481807149,-0.003141095403435905
9.689110144932176,-0.0031372557647928795
9.685215808057205,-0.0031337445003331017
9.68132147118223,-0.0031305515228508816
9.677427134307258,-0.003127667232296699
9.673532797432285,-0.003125082485950887
9.669638460557312,-0.0031227885716356182
9.665744123682341,-0.0031207771818454397
9.661849786807366,-0.0031190403894583024
9.657955449932395,-0.00311757062793998
9.654061113057422,-0.0031163606686021657
9.650166776182449,-0.003115403603024922
9.646272439307477,-0.0031146928252779394
9.642378102432502,-0.0031142220149130984
9.638483765557531,-0.0031139851215973425
9.634589428682558,-0.003113976352017982
9.630695091807585,-0.0031141901543301647
9.626800754932612,-0.0031146212073462714
9.622906418057639,-0.003115264408139935
9.619012081182667,-0.003116114860583382
9.615117744307694,-0.0031171678656969513
9.611223407432721,-0.0031184189116230257
9.607329070557748,-0.0031198636639211998
9.603434733682775,-0.003121497958556387
9.599540396807804,-0.003123317791556197
9.59564605993283,-0.003125319313424967
9.591751723057858,-0.0031274988207940645
9.587857386182884,-0.0031298527506462698
9.583963049307911,-0.003132377671751754
9.58006871243294,-0.003135070281938874
9.576174375557967,-0.0031379274001039088
9.572280038682994,-0.0031409459600851286
9.56838570180802,-0.003144123008595975
9.56449136493305,-0.0031474556981498122
9.560597028058076,-0.0031509412819123593
9.556702691183103,-0.003154577112552414
9.55280835430813,-0.0031583606340073065
9.548914017433157,-0.003162289380885733
9.545019680558186,-0.003166360972640683
9.54112534368321,-0.003170573112143994
9.53723100680824,-0.0031749235800706916
9.533336669933266,-0.0031794102334342157
9.529442333058293,-0.003184031001926461
9.525547996183322,-0.003188783884875901
9.521653659308347,-0.0031936669493023953
9.517759322433376,-0.00319867832599736
9.513864985558403,-0.003203816208851165
9.50997064868343,-0.0032090788503276084
9.506076311808458,-0.003214464561355091
9.502181974933483,-0.003219971708113496
9.498287638058512,-0.003225598709523407
9.494393301183539,-0.003231344036624725
9.490498964308566,-0.003237206209185524
9.486604627433593,-0.00324318379558133
9.48271029055862,-0.003249275409436496
9.478815953683648,-0.003255479709486054
9.474921616808675,-0.00326179539654472
9.471027279933702,-0.003268221213765984
9.46713294305873,-0.003274755943247679
9.463238606183756,-0.003281398406470273
9.459344269308785,-0.003288147461638786
9.45544993243381,-0.0032950020033587946
9.451555595558839,-0.0033019609611470656
9.447661258683866,-0.003309023297770102
9.443766921808892,-0.0033161880088368964
9.439872584933921,-0.003323454121820345
9.435978248058946,-0.0033308206937041475
9.432083911183975,-0.003338286812443823
9.428189574309002,-0.0033458515934753756
9.424295237434029,-0.0033535141801394027
9.420400900559057,-0.0033612737432216575
9.416506563684083,-0.0033691294792576386
9.412612226809111,-0.003377080609107571
9.408717889934138,-0.0033851263792424344
9.404823553059165,-0.0033932660597677943
9.400929216184192,-0.003401498943340329
9.397034879309219,-0.003409824345014109
9.393140542434248,-0.0034182416015287793
9.389246205559274,-0.0034267500709773712
9.385351868684301,-0.003435349131300212
9.381457531809328,-0.003444038181496353
9.377563194934355,-0.003452816637986481
9.373668858059384,-0.0034616839374422273
9.36977452118441,-0.0034706395338209386
9.365880184309438,-0.0034796829004471157
9.361985847434465,-0.003488813525086697
9.358091510559492,-0.003498030914802784
9.35419717368452,-0.003507334591586567
9.350302836809547,-0.0035167240937158794
9.346408499934574,-0.003526198974939904
9.342514163059601,-0.0035357588035699844
9.338619826184628,-0.003545403163506728
9.334725489309657,-0.0035551316514426416
9.330831152434683,-0.0035649438796035646
9.326936815559671,-0.0035748394724095622
9.323042478684698,-0.0035848180683194274
9.319148141809725,-0.0035948793180501973
9.315253804934754,-0.003605022885342937
9.31135946805978,-0.003615248445406263
9.307465131184808,-0.003625555686378607
9.303570794309834,-0.0036359443074730434
9.299676457434863,-0.003646414018869495
9.29578212055989,-0.003656964542446183
9.291887783684917,-0.003667595610676374
9.287993446809944,-0.0036783069666207176
9.28409910993497,-0.0036890983632991647
9.28020477306,-0.0036999695644689846
9.276310436185025,-0.0037109203427084687
9.272416099310053,-0.003721950481436872
9.26852176243508,-0.0037330597726323946
9.264627425560107,-0.003744248017537958
9.260733088685136,-0.003755515026700523
9.256838751810161,-0.003766860619082447
9.25294441493519,-0.003778284622172565
9.249050078060217,-0.003789786872855262
9.245155741185243,-0.003801367214127964
9.241261404310272,-0.00381302549939462
9.237367067435297,-0.0038247615889045613
9.233472730560326,-0.0038365753497983444
9.229578393685353,-0.003848466657986629
9.22568405681038,-0.0038604353969218697
9.221789719935407,-0.0038724814554621607
9.217895383060434,-0.003884604731976922
9.214001046185462,-0.0038968051300717205
9.21010670931049,-0.003909082560955243
9.206212372435516,-0.003921436941715085
9.202318035560543,-0.003933868197504654
9.19842369868557,-0.00394637625790945
9.194529361810599,-0.0039589610609038015
9.190635024935624,-0.003971622548890017
9.186740688060652,-0.003984360671267139
9.18284635118568,-0.003997175383428478
9.178952014310706,-0.004010066645928831
9.175057677435735,-0.004023034425984418
9.17116334056076,-0.004036078695665406
9.167269003685789,-0.004049199432859546
9.163374666810816,-0.004062396621066313
9.159480329935842,-0.00407567024912311
9.155585993060871,-0.004089020310836158
9.151691656185896,-0.00410244680524724
9.147797319310925,-0.004115949736884662
9.143902982435952,-0.00412952911467126
9.140008645560979,-0.004143184952599851
9.136114308686006,-0.004156917270044185
9.132219971811033,-0.004170726090220274
9.128325634936061,-0.0041846114420373455
9.124431298061088,-0.004198573357737333
9.120536961186115,-0.004212611875745418
9.116642624311142,-0.004226727037089288
9.112748287436169,-0.004240918889096059
9.108853950561198,-0.00425518748148327
9.104959613686225,-0.004269532869694391
9.101065276811251,-0.004283955113285933
9.097170939936278,-0.0042984542746014745
9.093276603061305,-0.004313030421678636
9.089382266186334,-0.004327683625976334
9.08548792931136,-0.00434241396242466
9.081593592436388,-0.004357221510654678
9.077699255561415,-0.004372106353558928
9.073804918686442,-0.004387068578360297
9.06991058181147,-0.004402108275216527
9.066016244936497,-0.004417225539407886
9.062121908061524,-0.004432420467734949
9.058227571186551,-0.004447693163202846
9.05433323431158,-0.004463043730126893
9.050438897436605,-0.004478472277732186
9.046544560561633,-0.004493978917990119
9.04265022368666,-0.0045095637665635065
9.038755886811687,-0.004525226942724603
9.034861549936716,-0.00454096856888131
9.030967213061741,-0.00455678877041813
9.02707287618677,-0.004572687677075019
9.023178539311797,-0.004588665420388764
9.019284202436824,-0.004604722136272684
9.015389865561852,-0.004620857962880067
9.011495528686877,-0.004637073042768305
9.007601191811906,-0.004653367520119016
9.003706854936933,-0.004669741543380939
8.99981251806196,-0.004686195263019432
8.995918181186987,-0.004702728833694045
8.992023844312014,-0.004719342411764212
8.988129507437042,-0.004736036157636419
8.98423517056207,-0.004752810234233507
8.980340833687096,-0.004769664806985264
8.976446496812123,-0.004786600044678102
8.97255215993715,-0.004803616118740287
8.968657823062179,-0.004820713203592406
8.964763486187204,-0.004837891476237653
8.960869149312233,-0.004855151116729647
8.95697481243726,-0.004872492307396762
8.953080475562286,-0.004889915233689796
8.949186138687315,-0.0049074200840982865
8.94529180181234,-0.004925007048499628
8.941397464937369,-0.0049426763207270205
8.937503128062396,-0.004960428097170095
8.933608791187423,-0.004978262575674042
8.929714454312451,-0.0049961799579738815
8.925820117437476,-0.005014180448120848
8.921925780562505,-0.005032264251833479
8.918031443687532,-0.005050431578649047
8.914137106812559,-0.005068682639794337
8.910242769937586,-0.005087017649316474
8.906348433062613,-0.0051054368231989765
8.902454096187641,-0.005123940381527594
8.898559759312668,-0.0051425285445254
8.894665422437695,-0.005161201536547995
8.890771085562722,-0.005179959584078526
8.88687674868775,-0.005198802915744035
8.882982411812778,-0.005217731762287815
8.879088074937805,-0.005236746357763485
8.875193738062832,-0.005255846937642706
8.871299401187859,-0.005275033740426006
8.867405064312846,-0.005294307006933271
8.863510727437875,-0.005313666979925721
8.859616390562902,-0.005333113904649288
8.855722053687929,-0.005352648028549549
8.851827716812956,-0.005372269602114179
8.847933379937983,-0.0053919788772049185
8.844039043063011,-0.005411776108390768
8.840144706188038,-0.0054316615531067
8.836250369313065,-0.005451635469073395
8.832356032438092,-0.005471698118986647
8.828461695563119,-0.005491849765998479
8.824567358688148,-0.005512090675868268
8.820673021813175,-0.00553242111691807
8.816778684938201,-0.005552841359267899
8.812884348063228,-0.005573351675504412
8.808990011188255,-0.005593952340270681
8.805095674313282,-0.005614643631319479
8.801201337438311,-0.005635425826724843
8.797307000563338,-0.005656299208816327
8.793412663688365,-0.005677264060278798
8.789518326813392,-0.005698320667976783
8.785623989938419,-0.005719469318864002
8.781729653063447,-0.005740710303546595
8.777835316188474,-0.005762043914365168
8.773940979313501,-0.005783470445385119
8.77004664243853,-0.005804990193392996
8.766152305563555,-0.005826603457466618
8.762257968688584,-0.005848310538061425
8.75836363181361,-0.00587011173854834
8.754469294938637,-0.005892007363796893
8.750574958063664,-0.005913997721634933
8.746680621188691,-0.005936083121146637
8.74278628431372,-0.005958263874105232
8.738891947438747,-0.005980540294124716
8.734997610563774,-0.006002912697255773
8.7311032736888,-0.006025381401145082
8.727208936813827,-0.006047946726470228
8.723314599938856,-0.006070608995044894
8.719420263063883,-0.0060933685311618715
8.71552592618891,-0.006116225661686099
8.711631589313937,-0.006139180714593942
8.707737252438964,-0.006162234021026756
8.703842915563992,-0.0061853859137825555
8.699948578689018,-0.0062086367279237525
8.696054241814046,-0.006231986799908724
8.692159904939073,-0.006255436468950648
8.6882655680641,-0.006278986076899448
8.684371231189129,-0.006302635966621892
8.680476894314154,-0.006326386483573645
8.676582557439183,-0.006350237975430273
8.67268822056421,-0.006374190791695218
8.668793883689236,-0.006398245284648044
8.664899546814263,-0.006422401807134165
8.66100520993929,-0.00644666071638797
8.657110873064319,-0.0064710223696486146
8.653216536189346,-0.006495487127207786
8.649322199314373,-0.006520055351778375
8.6454278624394,-0.006544727407360659
8.641533525564427,-0.006569503660866248
8.637639188689455,-0.006594384480359329
8.633744851814482,-0.006619370237423536
8.629850514939509,-0.006644461304241244
8.625956178064536,-0.006669658056061045
8.622061841189563,-0.00669496087016645
8.618167504314592,-0.006720370125160179
8.614273167439618,-0.006745886203449655
8.610378830564645,-0.006771509487563972
8.606484493689672,-0.006797240363590643
8.6025901568147,-0.006823079219063653
8.598695819939728,-0.006849026443995507
8.594801483064755,-0.006875082430240692
8.590907146189782,-0.006901247572180441
8.587012809314809,-0.006927522266092795
8.583118472439836,-0.006953906910090825
8.579224135564864,-0.006980401904963568
8.575329798689891,-0.0070070076535382
8.571435461814918,-0.007033724560442795
8.567541124939945,-0.007060553033081479
8.563646788064972,-0.007087493480353249
8.559752451189999,-0.007114546313754711
8.555858114315027,-0.007141711946756351
8.551963777440054,-0.007168990795264616
8.548069440565081,-0.007196383276665629
8.544175103690108,-0.0072238898117473515
8.540280766815135,-0.0072515108221373956
8.536386429940164,-0.00727924673244936
8.53249209306519,-0.007307097969489453
8.528597756190218,-0.007335064961864537
8.524703419315244,-0.007363148140796841
8.520809082440271,-0.007391347939718089
8.5169147455653,-0.007419664793266794
8.513020408690327,-0.007448099139823495
8.509126071815354,-0.007476651419188853
8.50523173494038,-0.007505322073304002
8.501337398065408,-0.007534111546592422
8.497443061190436,-0.007563020285567703
8.493548724315463,-0.007592048739260747
8.48965438744049,-0.007621197358503773
8.485760050565517,-0.007650466596695582
8.481865713690544,-0.0076798569094445055
8.477971376815573,-0.007709368754588725
8.474077039940598,-0.007739002592291718
8.470182703065626,-0.007768758884809692
8.466288366190653,-0.007798638096920107
8.46239402931568,-0.007828640695579554
8.458499692440709,-0.007858767150325196
8.454605355565734,-0.007889017931806496
8.450711018690763,-0.007919393515097232
8.44681668181579,-0.007949894375647337
8.442922344940817,-0.007980520992057243
8.439028008065845,-0.008011273845217217
8.43513367119087,-0.00804215341825413
8.4312393343159,-0.008073160196669775
8.427344997440926,-0.008104294668595566
8.423450660565914,-0.008135557323600212
8.419556323690943,-0.008166948654826726
8.415661986815968,-0.00819846915685533
8.411767649941035,-0.008230119327378934
8.407873313066023,-0.008261899665740926
8.40397897619105,-0.008293810673809536
8.400084639316077,-0.008325852856435955
8.396190302441104,-0.008358026720398955
8.392295965566133,-0.008390332775203744
8.38840162869116,-0.008422771532199443
8.384507291816186,-0.008455343505876387
8.380612954941213,-0.008488049211908483
8.37671861806624,-0.008520889170666077
8.372824281191269,-0.008553863902581333
8.368929944316296,-0.008586973932042906
8.365035607441323,-0.00862021978518747
8.36114127056635,-0.00865360199110283
8.357246933691377,-0.008687121081172063
8.353352596816405,-0.008720777588735448
8.349458259941432,-0.008754572050635262
8.345563923066459,-0.008788505005594995
8.341669586191486,-0.008822576994903283
8.337775249316513,-0.008856788562298145
8.333880912441542,-0.008891140254669602
8.329986575566569,-0.0089256326203035
8.326092238691595,-0.008960266211519059
8.322197901816622,-0.008995041581620665
8.31830356494165,-0.009029959287845916
8.314409228066676,-0.009065019888935722
8.310514891191705,-0.009100223947366462
8.306620554316732,-0.009135572026740146
8.302726217441759,-0.009171064694710783
8.298831880566786,-0.00920670252018894
8.294937543691812,-0.009242486076594288
8.291043206816841,-0.00927841593763628
8.287148869941868,-0.009314492681466892
8.283254533066895,-0.00935071688833518
8.279360196191922,-0.009387089140655126
8.275465859316949,-0.009423610024344093
8.271571522441977,-0.00946028012743929
8.267677185567004,-0.00949710004115472
8.263782848692031,-0.009534070358541084
8.259888511817058,-0.009571191676424487
8.255994174942085,-0.009608464593654591
8.252099838067114,-0.009645889712057348
8.24820550119214,-0.009683467636161232
8.244311164317168,-0.009721198973013868
8.240416827442195,-0.009759084333235597
8.236522490567221,-0.00979712432908977
8.23262815369225,-0.009835319576312828
8.228733816817275,-0.009873670693710316
8.224839479942304,-0.009912178301964137
8.22094514306733,-0.00995084302540951
8.217050806192358,-0.00998966549108279
8.213156469317386,-0.010028646328286433
8.209262132442412,-0.010067786169922403
8.20536779556744,-0.01010708565121784
8.201473458692467,-0.010146545410553452
8.197579121817494,-0.010186166089050559
8.193684784942523,-0.010225948331021332
8.189790448067548,-0.010265892783163805
8.185896111192577,-0.010306000095783764
8.182001774317603,-0.010346270921003814
8.17810743744263,-0.010386705915666405
8.174213100567657,-0.010427305737751634
8.170318763692684,-0.01046807104895372
8.166424426817713,-0.010509002514820679
8.16253008994274,-0.010550100801872343
8.158635753067767,-0.010591366581704547
8.154741416192794,-0.010632800527346942
8.15084707931782,-0.010674403316208492
8.14695274244285,-0.010716175627687756
8.143058405567876,-0.010758118144688153
8.139164068692903,-0.010800231553234214
8.13526973181793,-0.010842516541852342
8.131375394942957,-0.010884973803006856
8.127481058067985,-0.010927604032153114
8.123586721193012,-0.010970407926629353
8.11969238431804,-0.011013386188750479
8.115798047443066,-0.0110565395229019
8.111903710568093,-0.011099868636403411
8.108009373693122,-0.011143374240366204
8.104115036818149,-0.011187057049119308
8.100220699943176,-0.011230917779424468
8.096326363068203,-0.01127495715205662
8.09243202619323,-0.011319175890676304
8.088537689318256,-0.011363574721723512
8.084643352443285,-0.011408154376450845
8.080749015568312,-0.011452915587167916
8.076854678693339,-0.011497859091247929
8.072960341818366,-0.01154298562831452
8.069066004943393,-0.011588295941654279
8.065171668068421,-0.011633790778203968
8.061277331193448,-0.011679470887527731
8.057382994318475,-0.011725337023418318
8.053488657443502,-0.011771389941939747
