Time,Flux
0.0,-3.8935463
0.0009009009009009009,-3.9037538
0.0018018018018018018,-3.9128234
0.002702702702702703,-3.9207163
0.0036036036036036037,-3.9272046
0.0045045045045045045,-3.9325476
0.005405405405405406,-3.9365647
0.006306306306306306,-3.9392009
0.007207207207207207,-3.9405818
0.008108108108108109,-3.9406052
0.009009009009009009,-3.9393108
0.00990990990990991,-3.9367294
0.010810810810810811,-3.9328694
0.011711711711711712,-3.9277303
0.012612612612612612,-3.9214146
0.013513513513513514,-3.9138434
0.014414414414414415,-3.9051032
0.015315315315315315,-3.8952646
0.016216216216216217,-3.8843277
0.017117117117117116,-3.872457
0.018018018018018018,-3.8594449
0.01891891891891892,-3.8455973
0.01981981981981982,-3.8307922
0.02072072072072072,-3.8151164
0.021621621621621623,-3.7987266
0.02252252252252252,-3.7815328
0.023423423423423424,-3.7635698
0.024324324324324326,-3.7449832
0.025225225225225224,-3.7258122
0.026126126126126126,-3.705994
0.02702702702702703,-3.6857126
0.027927927927927927,-3.664941
0.02882882882882883,-3.643722
0.02972972972972973,-3.622056
0.03063063063063063,-3.599994
0.03153153153153153,-3.5776806
0.032432432432432434,-3.5550475
0.03333333333333333,-3.5320928
0.03423423423423423,-3.508944
0.03513513513513514,-3.4856107
0.036036036036036036,-3.4620774
0.036936936936936934,-3.438391
0.03783783783783784,-3.414589
0.03873873873873874,-3.390738
0.03963963963963964,-3.366777
0.04054054054054054,-3.3427691
0.04144144144144144,-3.3187199
0.04234234234234234,-3.2946668
0.043243243243243246,-3.2706156
0.044144144144144144,-3.246643
0.04504504504504504,-3.2226272
0.04594594594594595,-3.1987035
0.04684684684684685,-3.1748996
0.047747747747747746,-3.1510642
0.04864864864864865,-3.1273916
0.04954954954954955,-3.1038601
0.05045045045045045,-3.0804372
0.051351351351351354,-3.0570254
0.05225225225225225,-3.0338883
0.05315315315315315,-3.010814
0.05405405405405406,-2.9879358
0.054954954954954956,-2.9651318
0.055855855855855854,-2.9425576
0.05675675675675676,-2.9201128
0.05765765765765766,-2.8978524
0.05855855855855856,-2.8758118
0.05945945945945946,-2.8539045
0.06036036036036036,-2.8322344
0.06126126126126126,-2.810745
0.062162162162162166,-2.7893064
0.06306306306306306,-2.768272
0.06396396396396396,-2.7473376
0.06486486486486487,-2.7265916
0.06576576576576576,-2.706022
0.06666666666666667,-2.6857584
0.06756756756756757,-2.6655731
0.06846846846846846,-2.6456313
0.06936936936936937,-2.6259444
0.07027027027027027,-2.6064222
0.07117117117117117,-2.587151
0.07207207207207207,-2.5680015
0.07297297297297298,-2.5490932
0.07387387387387387,-2.530387
0.07477477477477477,-2.5118809
0.07567567567567568,-2.4936256
0.07657657657657657,-2.4755688
0.07747747747747748,-2.4576256
0.07837837837837838,-2.439943
0.07927927927927927,-2.422412
0.08018018018018018,-2.405222
0.08108108108108109,-2.388171
0.08198198198198198,-2.3712282
0.08288288288288288,-2.3545737
0.08378378378378379,-2.3380702
0.08468468468468468,-2.3217685
0.08558558558558559,-2.3056514
0.08648648648648649,-2.2897441
0.08738738738738738,-2.2740293
0.08828828828828829,-2.2585044
0.0891891891891892,-2.2430992
0.09009009009009009,-2.2279158
0.09099099099099099,-2.2129853
0.0918918918918919,-2.1981804
0.09279279279279279,-2.1835678
0.0936936936936937,-2.1691353
0.0945945945945946,-2.1548817
0.09549549549549549,-2.140775
0.0963963963963964,-2.1268332
0.0972972972972973,-2.1130698
0.0981981981981982,-2.099473
0.0990990990990991,-2.0861235
0.1,-2.0728543
0.1009009009009009,-2.0597932
0.1018018018018018,-2.0468986
0.10270270270270271,-2.034161
0.1036036036036036,-2.0214903
0.1045045045045045,-2.0090802
0.10540540540540541,-1.9967977
0.1063063063063063,-1.9846191
0.10720720720720721,-1.9727014
0.10810810810810811,-1.9608524
0.109009009009009,-1.9492035
0.10990990990990991,-1.9376231
0.11081081081081082,-1.9262291
0.11171171171171171,-1.9150685
0.11261261261261261,-1.9038649
0.11351351351351352,-1.892975
0.11441441441441441,-1.8820478
0.11531531531531532,-1.8713638
0.11621621621621622,-1.8608407
0.11711711711711711,-1.850351
0.11801801801801802,-1.8400769
0.11891891891891893,-1.830001
0.11981981981981982,-1.819929
0.12072072072072072,-1.8099983
0.12162162162162163,-1.8002068
0.12252252252252252,-1.7905507
0.12342342342342343,-1.7810142
0.12432432432432433,-1.771611
0.12522522522522522,-1.7622844
0.12612612612612611,-1.7530911
0.12702702702702703,-1.7440666
0.12792792792792793,-1.735142
0.12882882882882882,-1.7263097
0.12972972972972974,-1.7175401
0.13063063063063063,-1.7089097
0.13153153153153152,-1.7003853
0.13243243243243244,-1.6920159
0.13333333333333333,-1.683674
0.13423423423423422,-1.6755457
0.13513513513513514,-1.6673685
0.13603603603603603,-1.65946
0.13693693693693693,-1.6515455
0.13783783783783785,-1.6437273
0.13873873873873874,-1.6360071
0.13963963963963963,-1.6284026
0.14054054054054055,-1.6209334
0.14144144144144144,-1.6135074
0.14234234234234233,-1.6062325
0.14324324324324325,-1.5989928
0.14414414414414414,-1.5918218
0.14504504504504503,-1.5847704
0.14594594594594595,-1.5778152
0.14684684684684685,-1.5709462
0.14774774774774774,-1.5641714
0.14864864864864866,-1.5574359
0.14954954954954955,-1.5508003
0.15045045045045044,-1.5442845
0.15135135135135136,-1.5377568
0.15225225225225225,-1.5314016
0.15315315315315314,-1.5250663
0.15405405405405406,-1.5188622
0.15495495495495495,-1.5127406
0.15585585585585585,-1.5066503
0.15675675675675677,-1.5006229
0.15765765765765766,-1.4946326
0.15855855855855855,-1.488813
0.15945945945945947,-1.4830503
0.16036036036036036,-1.4772719
0.16126126126126125,-1.4716524
0.16216216216216217,-1.4660231
0.16306306306306306,-1.4605272
0.16396396396396395,-1.4550527
0.16486486486486487,-1.4496588
0.16576576576576577,-1.4443904
0.16666666666666666,-1.4390906
0.16756756756756758,-1.4339163
0.16846846846846847,-1.4287539
0.16936936936936936,-1.4236404
0.17027027027027028,-1.4186308
0.17117117117117117,-1.4136919
0.17207207207207206,-1.408708
0.17297297297297298,-1.4038985
0.17387387387387387,-1.3991145
0.17477477477477477,-1.3944051
0.17567567567567569,-1.389684
0.17657657657657658,-1.3850746
0.17747747747747747,-1.3804828
0.1783783783783784,-1.3758637
0.17927927927927928,-1.3715014
0.18018018018018017,-1.3670548
0.1810810810810811,-1.3626847
0.18198198198198198,-1.3583578
0.18288288288288287,-1.3541211
0.1837837837837838,-1.3498099
0.18468468468468469,-1.3456732
0.18558558558558558,-1.3415444
0.1864864864864865,-1.3373646
0.1873873873873874,-1.3333436
0.18828828828828828,-1.3293638
0.1891891891891892,-1.3253684
0.1900900900900901,-1.3214887
0.19099099099099098,-1.3175619
0.1918918918918919,-1.3137116
0.1927927927927928,-1.3099692
0.19369369369369369,-1.306168
0.1945945945945946,-1.3024726
0.1954954954954955,-1.2988164
0.1963963963963964,-1.295131
0.1972972972972973,-1.2915729
0.1981981981981982,-1.2880148
0.1990990990990991,-1.2844666
0.2,-1.2810066
0.2009009009009009,-1.2775211
0.2018018018018018,-1.2740984
0.20270270270270271,-1.2707326
0.2036036036036036,-1.2674099
0.2045045045045045,-1.2640696
0.20540540540540542,-1.2607548
0.2063063063063063,-1.2575419
0.2072072072072072,-1.2542938
0.20810810810810812,-1.2511653
0.209009009009009,-1.2479937
0.2099099099099099,-1.2448847
0.21081081081081082,-1.2417426
0.21171171171171171,-1.2386552
0.2126126126126126,-1.2356641
0.21351351351351353,-1.2326767
0.21441441441441442,-1.2296542
0.2153153153153153,-1.226769
0.21621621621621623,-1.223866
0.21711711711711712,-1.2209513
0.218018018018018,-1.2180994
0.21891891891891893,-1.2152338
0.21981981981981982,-1.2124976
0.22072072072072071,-1.2096417
0.22162162162162163,-1.2068192
0.22252252252252253,-1.2042046
0.22342342342342342,-1.2014939
0.22432432432432434,-1.1988518
0.22522522522522523,-1.1960901
0.22612612612612612,-1.1934873
0.22702702702702704,-1.1908884
0.22792792792792793,-1.1882503
0.22882882882882882,-1.185667
0.22972972972972974,-1.183178
0.23063063063063063,-1.1806301
0.23153153153153153,-1.1781371
0.23243243243243245,-1.1756794
0.23333333333333334,-1.1731943
0.23423423423423423,-1.1707326
0.23513513513513515,-1.1682789
0.23603603603603604,-1.1658899
0.23693693693693693,-1.163497
0.23783783783783785,-1.1611903
0.23873873873873874,-1.158815
0.23963963963963963,-1.1565397
0.24054054054054055,-1.1542507
0.24144144144144145,-1.1519343
0.24234234234234234,-1.149708
0.24324324324324326,-1.1474563
0.24414414414414415,-1.1451732
0.24504504504504504,-1.1430372
0.24594594594594596,-1.1407933
0.24684684684684685,-1.1385769
0.24774774774774774,-1.1364683
0.24864864864864866,-1.1343127
0.24954954954954955,-1.1321571
0.25045045045045045,-1.1300191
0.25135135135135134,-1.1279596
0.25225225225225223,-1.125857
0.2531531531531532,-1.1237916
0.25405405405405407,-1.1218046
0.25495495495495496,-1.1197765
0.25585585585585585,-1.1176895
0.25675675675675674,-1.1157026
0.25765765765765763,-1.1137549
0.2585585585585586,-1.1117699
0.2594594594594595,-1.1098516
0.26036036036036037,-1.1078392
0.26126126126126126,-1.1059091
0.26216216216216215,-1.1039987
0.26306306306306304,-1.1020687
0.263963963963964,-1.1002249
0.2648648648648649,-1.0983067
0.26576576576576577,-1.0964079
0.26666666666666666,-1.0945956
0.26756756756756755,-1.09274
0.26846846846846845,-1.0908885
0.2693693693693694,-1.0890683
0.2702702702702703,-1.0872834
0.2711711711711712,-1.0854788
0.27207207207207207,-1.0836861
0.27297297297297296,-1.0819718
0.27387387387387385,-1.0801673
0.2747747747747748,-1.0783509
0.2756756756756757,-1.0766562
0.2765765765765766,-1.0748949
0.2774774774774775,-1.0731884
0.27837837837837837,-1.0715055
0.27927927927927926,-1.0698148
0.2801801801801802,-1.0681593
0.2810810810810811,-1.0665157
0.281981981981982,-1.064766
0.2828828828828829,-1.063087
0.28378378378378377,-1.0614512
0.28468468468468466,-1.0598232
0.2855855855855856,-1.0582148
0.2864864864864865,-1.0566182
0.2873873873873874,-1.0549157
0.2882882882882883,-1.0533936
0.2891891891891892,-1.0518205
0.29009009009009007,-1.050224
0.290990990990991,-1.0486156
0.2918918918918919,-1.0470738
0.2927927927927928,-1.0454655
0.2936936936936937,-1.0439748
0.2945945945945946,-1.0424488
0.2954954954954955,-1.0409306
0.2963963963963964,-1.0393536
0.2972972972972973,-1.0378315
0.2981981981981982,-1.0363919
0.2990990990990991,-1.0348816
0.3,-1.0333399
0.3009009009009009,-1.0318923
0.30180180180180183,-1.0304173
0.3027027027027027,-1.0289423
0.3036036036036036,-1.0275301
0.3045045045045045,-1.0260904
0.3054054054054054,-1.0246154
0.3063063063063063,-1.0232149
0.30720720720720723,-1.0217634
0.3081081081081081,-1.0203474
0.309009009009009,-1.0189312
0.3099099099099099,-1.0174758
0.3108108108108108,-1.016087
0.3117117117117117,-1.0146866
0.31261261261261264,-1.0133529
0.31351351351351353,-1.0119603
0.3144144144144144,-1.0105637
0.3153153153153153,-1.0092496
0.3162162162162162,-1.0078334
0.3171171171171171,-1.006582
0.31801801801801804,-1.0051069
0.31891891891891894,-1.0037143
0.31981981981981983,-1.0023375
0.3207207207207207,-1.0011762
0.3216216216216216,-0.9998072
0.3225225225225225,-0.99853224
0.32342342342342345,-0.99725336
0.32432432432432434,-0.99582547
0.32522522522522523,-0.9945387
0.3261261261261261,-0.9932207
0.327027027027027,-0.99194574
0.3279279279279279,-0.99070215
0.32882882882882886,-0.98947823
0.32972972972972975,-0.9881837
0.33063063063063064,-0.9869362
0.33153153153153153,-0.9856103
0.3324324324324324,-0.9843079
0.3333333333333333,-0.9831624
0.33423423423423426,-0.9818718
0.33513513513513515,-0.9806008
0.33603603603603605,-0.9794082
0.33693693693693694,-0.97821957
0.33783783783783783,-0.97696817
0.3387387387387387,-0.97567755
0.33963963963963967,-0.97453994
0.34054054054054056,-0.973316
0.34144144144144145,-0.9721862
0.34234234234234234,-0.97092307
0.34324324324324323,-0.9697776
0.3441441441441441,-0.96848303
0.3450450450450451,-0.96733755
0.34594594594594597,-0.9661646
0.34684684684684686,-0.9649642
0.34774774774774775,-0.96383834
0.34864864864864864,-0.96264184
0.34954954954954953,-0.96145713
0.3504504504504505,-0.9602881
0.35135135135135137,-0.9591701
0.35225225225225226,-0.9580796
0.35315315315315315,-0.95689094
0.35405405405405405,-0.9557847
0.35495495495495494,-0.9545921
0.3558558558558559,-0.9534231
0.3567567567567568,-0.9523561
0.35765765765765767,-0.9512263
0.35855855855855856,-0.9500769
0.35945945945945945,-0.9489432
0.36036036036036034,-0.9478801
0.3612612612612613,-0.94669145
0.3621621621621622,-0.94565976
0.3630630630630631,-0.9445417
0.36396396396396397,-0.9434276
0.36486486486486486,-0.94234097
0.36576576576576575,-0.9412622
0.3666666666666667,-0.9401559
0.3675675675675676,-0.9390379
0.3684684684684685,-0.9380062
0.36936936936936937,-0.9369117
0.37027027027027026,-0.9358212
0.37117117117117115,-0.93482083
0.3720720720720721,-0.93379307
0.372972972972973,-0.93264365
0.3738738738738739,-0.9316904
0.3747747747747748,-0.9305135
0.37567567567567567,-0.929576
0.37657657657657656,-0.9284854
0.3774774774774775,-0.9274733
0.3783783783783784,-0.926469
0.3792792792792793,-0.925453
0.3801801801801802,-0.9243703
0.3810810810810811,-0.92335033
0.38198198198198197,-0.9223069
0.3828828828828829,-0.9212987
0.3837837837837838,-0.9202905
0.3846846846846847,-0.91925097
0.3855855855855856,-0.91826236
0.3864864864864865,-0.91726595
0.38738738738738737,-0.9162421
0.3882882882882883,-0.9152614
0.3891891891891892,-0.914265
0.3900900900900901,-0.91326857
0.390990990990991,-0.9123545
0.3918918918918919,-0.91131103
0.3927927927927928,-0.91026366
0.3936936936936937,-0.90931433
0.3945945945945946,-0.9082983
0.3954954954954955,-0.90734893
0.3963963963963964,-0.9063918
0.3972972972972973,-0.90542674
0.3981981981981982,-0.9044303
0.39909909909909913,-0.9035006
0.4,-0.9025199
0.4009009009009009,-0.9015235
0.4018018018018018,-0.9006369
0.4027027027027027,-0.899613
0.4036036036036036,-0.8986755
0.40450450450450454,-0.89777714
0.40540540540540543,-0.8968631
0.4063063063063063,-0.8958981
0.4072072072072072,-0.89494485
0.4081081081081081,-0.8939327
0.409009009009009,-0.89306575
0.40990990990990994,-0.8920929
0.41081081081081083,-0.8911946
0.4117117117117117,-0.89026093
0.4126126126126126,-0.88939786
0.4135135135135135,-0.8884917
0.4144144144144144,-0.88754237
0.41531531531531535,-0.8865891
0.41621621621621624,-0.88574964
0.41711711711711713,-0.8848709
0.418018018018018,-0.8838862
0.4189189189189189,-0.8830389
0.4198198198198198,-0.8820935
0.42072072072072075,-0.8812069
0.42162162162162165,-0.88034
0.42252252252252254,-0.8794848
0.42342342342342343,-0.8785276
0.4243243243243243,-0.877696
0.4252252252252252,-0.8767505
0.42612612612612616,-0.8759228
0.42702702702702705,-0.8750402
0.42792792792792794,-0.8741418
0.42882882882882883,-0.873165
0.4297297297297297,-0.8723295
0.4306306306306306,-0.8714664
0.43153153153153156,-0.87063086
0.43243243243243246,-0.86973643
0.43333333333333335,-0.86898327
0.43423423423423424,-0.8680182
0.43513513513513513,-0.8671944
0.436036036036036,-0.86637455
0.43693693693693697,-0.8654958
0.43783783783783786,-0.86466026
0.43873873873873875,-0.86384034
0.43963963963963965,-0.8629263
0.44054054054054054,-0.8621221
0.44144144144144143,-0.86125517
0.4423423423423424,-0.8604078
0.44324324324324327,-0.85956836
0.44414414414414416,-0.85881513
0.44504504504504505,-0.8579796
0.44594594594594594,-0.85708517
0.44684684684684683,-0.85622996
0.4477477477477478,-0.85548854
0.4486486486486487,-0.85456276
0.44954954954954957,-0.85382134
0.45045045045045046,-0.8530015
0.45135135135135135,-0.85216194
0.45225225225225224,-0.8513813
0.4531531531531532,-0.8506124
0.4540540540540541,-0.84977686
0.45495495495495497,-0.84885496
0.45585585585585586,-0.84810966
0.45675675675675675,-0.8472937
0.45765765765765765,-0.84650517
0.4585585585585586,-0.84570885
0.4594594594594595,-0.8449674
0.4603603603603604,-0.8440926
0.46126126126126127,-0.84337866
0.46216216216216216,-0.84247637
0.46306306306306305,-0.84176636
0.46396396396396394,-0.8409857
0.4648648648648649,-0.8401776
0.4657657657657658,-0.8394008
0.4666666666666667,-0.83869475
0.46756756756756757,-0.8378552
0.46846846846846846,-0.8370942
0.46936936936936935,-0.83626646
0.4702702702702703,-0.835478
0.4711711711711712,-0.8347091
0.4720720720720721,-0.8340148
0.47297297297297297,-0.8332498
0.47387387387387386,-0.832477
0.47477477477477475,-0.8317042
0.4756756756756757,-0.83097845
0.4765765765765766,-0.83016247
0.4774774774774775,-0.8294093
0.4783783783783784,-0.8286208
0.47927927927927927,-0.82792646
0.48018018018018016,-0.8272203
0.4810810810810811,-0.82642794
0.481981981981982,-0.82562375
0.4828828828828829,-0.82494116
0.4837837837837838,-0.8241566
0.4846846846846847,-0.82339555
0.48558558558558557,-0.8227051
0.4864864864864865,-0.8220186
0.4873873873873874,-0.82119477
0.4882882882882883,-0.8204887
0.4891891891891892,-0.81976295
0.4900900900900901,-0.8190764
0.49099099099099097,-0.8182448
0.4918918918918919,-0.81758183
0.4927927927927928,-0.81687176
0.4936936936936937,-0.81616175
0.4945945945945946,-0.81549877
0.4954954954954955,-0.81474954
0.4963963963963964,-0.8140434
0.4972972972972973,-0.81331766
0.4981981981981982,-0.8125684
0.4990990990990991,-0.81182307
0.5,-0.8111993
0.5009009009009009,-0.81044614
0.5018018018018018,-0.8097479
0.5027027027027027,-0.8089829
0.5036036036036036,-0.80828464
0.5045045045045045,-0.8076334
0.5054054054054055,-0.8069705
0.5063063063063064,-0.80622905
0.5072072072072072,-0.8055778
0.5081081081081081,-0.80482465
0.509009009009009,-0.80417734
0.5099099099099099,-0.80348694
0.5108108108108108,-0.8027455
0.5117117117117117,-0.80209434
0.5126126126126126,-0.8014235
0.5135135135135135,-0.8007527
0.5144144144144144,-0.80004656
0.5153153153153153,-0.7993287
0.5162162162162163,-0.7986775
0.5171171171171172,-0.7980302
0.5180180180180181,-0.7973045
0.518918918918919,-0.79667294
0.5198198198198198,-0.79601777
0.5207207207207207,-0.79532737
0.5216216216216216,-0.79462516
0.5225225225225225,-0.7939975
0.5234234234234234,-0.79329926
0.5243243243243243,-0.79264414
0.5252252252252252,-0.79192233
0.5261261261261261,-0.79133
0.5270270270270271,-0.7907219
0.527927927927928,-0.7900236
0.5288288288288289,-0.7893607
0.5297297297297298,-0.78865457
0.5306306306306307,-0.7880779
0.5315315315315315,-0.7874149
0.5324324324324324,-0.78675586
0.5333333333333333,-0.78602624
0.5342342342342342,-0.7854417
0.5351351351351351,-0.7848023
0.536036036036036,-0.7841707
0.5369369369369369,-0.7834607
0.5378378378378379,-0.7828369
0.5387387387387388,-0.7822328
0.5396396396396397,-0.7815934
0.5405405405405406,-0.7810481
0.5414414414414415,-0.7803145
0.5423423423423424,-0.7796594
0.5432432432432432,-0.77909845
0.5441441441441441,-0.77844334
0.545045045045045,-0.7778117
0.5459459459459459,-0.77716446
0.5468468468468468,-0.7765054
0.5477477477477477,-0.7759091
0.5486486486486487,-0.77529716
0.5495495495495496,-0.7747597
0.5504504504504505,-0.7740772
0.5513513513513514,-0.77343774
0.5522522522522523,-0.7727591
0.5531531531531532,-0.7722099
0.5540540540540541,-0.77159005
0.554954954954955,-0.77098596
0.5558558558558558,-0.77037394
0.5567567567567567,-0.7697738
0.5576576576576576,-0.76915
0.5585585585585585,-0.7685891
0.5594594594594595,-0.7679653
0.5603603603603604,-0.7673573
0.5612612612612613,-0.76675314
0.5621621621621622,-0.76608235
0.5630630630630631,-0.76549786
0.563963963963964,-0.76495254
0.5648648648648649,-0.7642974
0.5657657657657658,-0.7636972
0.5666666666666667,-0.763148
0.5675675675675675,-0.76255566
0.5684684684684684,-0.76198685
0.5693693693693693,-0.7613004
0.5702702702702703,-0.76076686
0.5711711711711712,-0.7601902
0.5720720720720721,-0.759641
0.572972972972973,-0.7589898
0.5738738738738739,-0.75837
0.5747747747747748,-0.75777763
0.5756756756756757,-0.75723624
0.5765765765765766,-0.7567773
0.5774774774774775,-0.7561457
0.5783783783783784,-0.75552195
0.5792792792792792,-0.75491
0.5801801801801801,-0.7543961
0.5810810810810811,-0.75380766
0.581981981981982,-0.7532114
0.5828828828828829,-0.7526857
0.5837837837837838,-0.75208944
0.5846846846846847,-0.7515363
0.5855855855855856,-0.7509479
0.5864864864864865,-0.7504144
0.5873873873873874,-0.7498142
0.5882882882882883,-0.7492728
0.5891891891891892,-0.74870795
